t y(t)
0.0 10.0
0.100200400802 10.0980968331
0.200400801603 10.1303439163
0.300601202405 10.1429776738
0.400801603206 10.1392504691
0.501002004008 10.1205585736
0.60120240481 10.0882982237
0.701402805611 10.0442817126
0.801603206413 9.990825469
0.901803607214 9.93071663612
1.00200400802 9.86711844222
1.10220440882 9.80343928694
1.20240480962 9.74317994426
1.30260521042 9.68976973538
1.40280561122 9.64640114314
1.50300601202 9.6158715749
1.60320641283 9.60044027705
1.70340681363 9.60170754845
1.80360721443 9.62052232411
1.90380761523 9.65692289848
2.00400801603 9.71011406273
2.10420841683 9.77848229279
2.20440881764 9.85964890948
2.30460921844 9.95055941029
2.40480961924 10.0476055174
2.50501002004 10.1467749707
2.60521042084 10.2438227848
2.70541082164 10.3344566459
2.80561122244 10.4145283908
2.90581162325 10.4802231289
3.00601202405 10.5282375523
3.10621242485 10.5559393338
3.20641282565 10.5615002305
3.30661322645 10.54399656
3.40681362725 10.5034720526
3.50701402806 10.4409596597
3.60721442886 10.3584606393
3.70741482966 10.258881078
3.80761523046 10.1459278629
3.90781563126 10.0239679089
4.00801603206 9.8978560944
4.10821643287 9.77273879531
4.20841683367 9.6538410628
4.30861723447 9.54624631506
4.40881763527 9.4546778688
4.50901803607 9.38329169538
4.60921843687 9.33548944535
4.70941883768 9.31376005228
4.80961923848 9.31955712894
4.90981963928 9.35321794916
5.01002004008 9.41392812383
5.11022044088 9.49973419756
5.21042084168 9.60760439199
5.31062124248 9.73353568583
5.41082164329 9.87270343608
5.51102204409 10.019647895
5.61122244489 10.1684903419
5.71142284569 10.3131702013
5.81162324649 10.447693516
5.91182364729 10.5663825373
6.0120240481 10.6641160069
6.1122244489 10.7365499577
6.2124248497 10.7803095409
6.3126252505 10.7931434713
6.4128256513 10.7740341409
6.5130260521 10.7232582046
6.61322645291 10.6423944474
6.71342685371 10.5342778941
6.81362725451 10.4029013509
6.91382765531 10.2532677659
7.01402805611 10.0911988868
7.11422845691 9.92310756959
7.21442885772 9.75574269565
7.31462925852 9.59591689327
7.41482965932 9.45022809668
7.51503006012 9.32478635947
7.61523046092 9.22495725603
7.71543086172 9.15513264998
7.81563126253 9.11853860165
7.91583166333 9.11708876454
8.01603206413 9.15128983753
8.11623246493 9.22020356635
8.21643286573 9.32146750683
8.31663326653 9.45137436611
8.41683366733 9.60500732458
8.51703406814 9.77642640963
8.61723446894 9.95889884019
8.71743486974 10.1451643789
8.81763527054 10.3277251958
8.91783567134 10.4991486332
9.01803607214 10.6523706099
9.11823647295 10.7809872538
9.21843687375 10.8795227078
9.31863727455 10.9436619101
9.41883767535 10.9704384725
9.51903807615 10.958369525
9.61923847695 10.9075314832
9.71943887776 10.8195730565
9.81963927856 10.6976643471
9.91983967936 10.5463834915
10.0200400802 10.371544865
10.120240481 10.1799752928
10.2204408818 9.97924689889
10.3206412826 9.77737707197
10.4208416834 9.58250746614
10.5210420842 9.40257491936
10.621242485 9.2449876169
10.7214428858 9.11631973263
10.8216432866 9.02203714461
10.9218436874 8.96626566508
11.0220440882 8.95161159205
11.122244489 8.97904234265
11.2224448898 9.04783254745
11.3226452906 9.15557836504
11.4228456914 9.29828002198
11.5230460922 9.47048980624
11.623246493 9.66552005566
11.7234468938 9.87570319711
11.8236472946 10.0926937099
11.9238476954 10.3078000994
12.0240480962 10.5123336517
12.124248497 10.6979599498
12.2244488978 10.8570389117
12.3246492986 10.9829394607
12.4248496994 11.0703158635
12.5250501002 11.1153342249
12.625250501 11.1158395652
12.7254509018 11.0714562444
12.8256513026 10.9836171464
12.9258517034 10.8555198965
13.0260521042 10.6920113294
13.126252505 10.4994043479
13.2264529058 10.2852340832
13.3266533066 10.0579627828
13.4268537074 9.8266449974
13.5270541082 9.60056633274
13.627254509 9.38887020075
13.7274549098 9.20018759125
13.8276553106 9.04228487201
13.9278557114 8.92174399962
14.0280561122 8.84368831096
14.128256513 8.81156531122
14.2284569138 8.82699564423
14.3286573146 8.88969481434
14.4288577154 8.99747132779
14.5290581162 9.14630185301
14.629258517 9.33048088506
14.7294589178 9.54283936739
14.8296593186 9.77502389639
14.9298597194 10.0178256273
15.0300601202 10.2615459175
15.130260521 10.496384173
15.2304609218 10.7128323698
15.3306613226 10.9020603544
15.4308617234 11.0562762951
15.5310621242 11.1690475656
15.6312625251 11.2355688435
15.7314629259 11.2528662624
15.8316633267 11.2199289681
15.9318637275 11.1377623106
16.0320641283 11.0093600364
16.1322645291 10.8395961012
16.2324649299 10.6350399747
16.3326653307 10.4037024269
16.4328657315 10.1547216317
16.5330661323 9.89800189639
16.6332665331 9.6438193139
16.7334669339 9.40241005096
16.8336673347 9.18355778442
16.9338677355 8.99619692593
17.0340681363 8.84804773626
17.1342685371 8.74529823579
17.2344689379 8.69234601498
17.3346693387 8.69161070523
17.4348697395 8.74342508011
17.5350701403 8.84600962818
17.6352705411 8.99553209733
17.7354709419 9.18625008967
17.8356713427 9.41073142392
17.9358717435 9.66014381526
18.0360721443 9.92460257872
18.1362725451 10.1935626595
18.2364729459 10.4562394304
18.3366733467 10.7020414519
18.4368737475 10.9209978159
18.5370741483 11.1041628205
18.6372745491 11.2439815446
18.7374749499 11.3346013797
18.8376753507 11.372116677
18.9378757515 11.3547362982
19.0380761523 11.2828669105
19.1382765531 11.1591082304
19.2384769539 10.9881599452
19.3386773547 10.7766436071
19.4388777555 10.5328462314
19.5390781563 10.2663955292
19.6392785571 9.9878795023
19.7394789579 9.70842544313
19.8396793587 9.4392550871
19.9398797595 9.19123371515
20.0400801603 8.97443133383
20.1402805611 8.79771366468
20.2404809619 8.66837956094
20.3406813627 8.59185968103
20.4408817635 8.57148885246
20.5410821643 8.60836165212
20.6412825651 8.70127742261
20.7414829659 8.84677737146
20.8416833667 9.03927270405
20.9418837675 9.27125906912
21.0420841683 9.53360909688
21.1422845691 9.81593162611
21.2424849699 10.1069834766
21.3426853707 10.3951174414
21.4428857715 10.6687486383
21.5430861723 10.9168205373
21.6432865731 11.1292519088
21.7434869739 11.2973466171
21.8436873747 11.4141495978
21.9438877756 11.4747344492
22.0440881764 11.4764107518
22.1442885772 11.4188424115
22.244488978 11.3040718612
22.3446893788 11.1364487238
22.4448897796 10.9224653783
22.5450901804 10.6705056283
22.6452905812 10.3905161987
22.745490982 10.093613933
22.8456913828 9.79164420908
22.9458917836 9.49670812298
23.0460921844 9.22067732169
23.1462925852 8.97471594619
23.246492986 8.76882894331
23.3466933868 8.61145502674
23.4468937876 8.50912084918
23.5470941884 8.46617055565
23.6472945892 8.48458191485
23.74749499 8.56387678981
23.8476953908 8.70112994632
23.9478957916 8.89107625836
24.0480961924 9.12631241151
24.1482965932 9.39758538797
24.248496994 9.69415649392
24.3486973948 10.004226605
24.4488977956 10.3154057844
24.5490981964 10.6152085749
24.6492985972 10.8915551565
24.749498998 11.1332582459
24.8496993988 11.3304761058
24.9498997996 11.4751133159
25.0501002004 11.5611529849
25.1503006012 11.5849067741
25.250501002 11.5451723552
25.3507014028 11.4432916051
25.4509018036 11.2831068052
25.5511022044 11.0708162043
25.6513026052 10.8147343556
25.751503006 10.5249664871
25.8517034068 10.2130096588
25.9519038076 9.89129645216
26.0521042084 9.57269930756
26.1523046092 9.27001527975
26.25250501 8.99545184111
26.3527054108 8.76013440133
26.4529058116 8.57365541672
26.5531062124 8.44368336574
26.6533066132 8.37564753007
26.753507014 8.37251153296
26.8537074148 8.43464506759
26.9539078156 8.55979933649
27.0541082164 8.74318757509
27.1543086172 8.97766781384
27.254509018 9.25402091369
27.3547094188 9.56131305505
27.4549098196 9.88732842628
27.5551102204 10.2190549848
27.6553106212 10.5432039684
27.755511022 10.8467424085
27.8557114228 11.117417299
27.9559118236 11.3442503332
28.0561122244 11.5179832295
28.1563126253 11.6314555781
28.2565130261 11.679899791
28.3567134269 11.661141013
28.4569138277 11.5756936249
28.5571142285 11.4267501007
28.6573146293 11.220062285
28.7575150301 10.9637194847
28.8577154309 10.6678319258
28.9579158317 10.3441319614
29.0581162325 10.0055087635
29.1583166333 9.66549495505
29.2585170341 9.33772563732
29.3587174349 9.035391444
29.4589178357 8.77070756743
29.5591182365 8.55442013642
29.6593186373 8.39536989637
29.7595190381 8.30013090827
29.8597194389 8.27273902927
29.9599198397 8.31452138056
30.0601202405 8.42403398924
30.1603206413 8.59711046987
30.2605210421 8.82702016051
30.3607214429 9.10472972648
30.4609218437 9.41925806955
30.5611222445 9.75811059883
30.6613226453 10.1077756868
30.7615230461 10.4542635794
30.8617234469 10.7836662612
30.9619238477 11.0827158626
31.0621242485 11.3393191845
31.1623246493 11.5430468021
31.2625250501 11.6855569618
31.3627254509 11.7609370447
31.4629258517 11.7659486216
31.5631262525 11.7001659535
31.6633266533 11.5660020381
31.7635270541 11.3686208
31.8637274549 11.1157385889
31.9639278557 10.8173226072
32.0641282565 10.4851980479
32.1643286573 10.1325794311
32.2645290581 9.77354471342
32.3647294589 9.422473106
32.4649298597 9.09346905515
32.5651302605 8.79979546626
32.6653306613 8.55333895124
32.7655310621 8.36412866406
32.8657314629 8.23992820326
32.9659318637 8.18591718629
33.0661322645 8.20447555061
33.1663326653 8.29507955205
33.2665330661 8.45431397312
33.3667334669 8.67600040255
33.4669338677 8.95143678649
33.5671342685 9.26973897046
33.6673346693 9.61827082873
33.7675350701 9.98314598154
33.8677354709 10.349781176
33.9679358717 10.7034792735
34.0681362725 11.0300185325
34.1683366733 11.3162245555
34.2685370741 11.5505018918
34.3687374749 11.7233038462
34.4689378758 11.8275214535
34.5691382766 11.8587757762
34.6693386774 11.8156015109
34.7695390782 11.6995142212
34.869739479 11.514958162
34.9699398798 11.2691364454
35.0701402806 10.9717300251
35.1703406814 10.6345164581
35.2705410822 10.2709034573
35.370741483 9.89539570883
35.4709418838 9.52301616293
35.5711422846 9.16870489013
35.6713426854 8.84671956387
35.7715430862 8.57006163085
35.871743487 8.34995126777
35.9719438878 8.19537232977
36.0721442886 8.1127057458
36.1723446894 8.10546631786
36.2725450902 8.1741537727
36.372745491 8.31622435907
36.4729458918 8.52618446342
36.5731462926 8.79580282386
36.6733466934 9.11443315352
36.7735470942 9.46943453079
36.873747495 9.84667295624
36.9739478958 10.2310841733
37.0741482966 10.6072753372
37.1743486974 10.9601414971
37.2745490982 11.2754721974
37.374749499 11.5405238322
37.4749498998 11.7445346991
37.5751503006 11.8791619327
37.6753507014 11.9388225795
37.7755511022 11.9209248743
37.875751503 11.8259801465
37.9759519038 11.6575905511
38.0761523046 11.4223127872
38.1763527054 11.1294029435
38.2765531062 10.7904523957
38.376753507 10.4189290756
38.4769539078 10.0296422678
38.5771543086 9.63815220492
38.6773547094 9.26014800382
38.7775551102 8.9108188143
38.877755511 8.60424339122
38.9779559118 8.35282262506
39.0781563126 8.16677790646
39.1783567134 8.05373561734
39.2785571142 8.01841463782
39.378757515 8.06242966826
39.4789579158 8.18421855158
39.5791583166 8.37909682716
39.6793587174 8.63943765092
39.7795591182 8.95497018208
39.879759519 9.31318476671
39.9799599198 9.69982893399
40.0801603206 10.099474538
40.1803607214 10.496133474
40.2805611222 10.873897393
40.380761523 11.2175758146
40.4809619238 11.5133070385
40.5811623246 11.7491172826
40.6813627255 11.9154054919
40.7815631263 12.005334189
40.8817635271 12.0151104571
40.9819639279 11.9441455152
41.0821643287 11.7950861869
41.1823647295 11.573716688
41.2825651303 11.2887343544
41.3827655311 10.9514079996
41.4829659319 10.575132319
41.5831663327 10.1748959609
41.6833667335 9.76668439097
41.7835671343 9.36684134128
41.8837675351 8.99141435648
41.9839679359 8.65551064603
42.0841683367 8.37268910235
42.1843687375 8.15441295547
42.2845691383 8.00958516052
42.3847695391 7.94418534863
42.4849699399 7.96102314243
42.5851703407 8.05961800506
42.6853707415 8.2362107399
42.7855711423 8.48390649006
42.8857715431 8.79294381148
42.9859719439 9.15107932424
43.0861723447 9.54407278622
43.1863727455 9.95625336995
43.2865731463 10.371144622
43.3867735471 10.7721231777
43.4869739479 11.1430848941
43.5871743487 11.4690917018
43.6873747495 11.7369731943
43.7875751503 11.9358587216
43.8877755511 12.0576184936
43.9879759519 12.0971957934
44.0881763527 12.0528167309
44.1883767535 11.9260688449
44.2885771543 11.7218451039
44.3887775551 11.4481552456
44.4889779559 11.1158117201
44.5891783567 10.7380025467
44.6893787575 10.329767959
44.7895791583 9.90740160811
44.8897795591 9.48780016512
44.9899799599 9.08778729014
45.0901803607 8.72343901736
45.1903807615 8.40943761151
45.2905811623 8.15847986879
45.3907815631 7.98076370933
45.4909819639 7.88357382158
45.5911823647 7.87098319246
45.6913827655 7.94368274691
45.7915831663 8.09894620981
45.8917835671 8.33073189599
45.9919839679 8.62991764694
46.0921843687 8.98465978485
46.1923847695 9.38086196143
46.2925851703 9.80273534144
46.3927855711 10.2334278579
46.4929859719 10.6556974573
46.5931863727 11.0526024364
46.6933867735 11.4081812264
46.7935871743 11.7080943468
46.8937875752 11.9402027062
46.993987976 12.0950589294
47.0941883768 12.1662918209
47.1943887776 12.150868326
47.2945891784 12.0492222215
47.3947895792 11.8652440952
47.49498998 11.6061327215
47.5951903808 11.2821134972
47.6953907816 10.9060349478
47.7955911824 10.4928592232
47.8957915832 10.059066789
47.995991984 9.62199899971
48.0961923848 9.19916478377
48.1963927856 8.80753916112
48.2965931864 8.46288170132
48.3967935872 8.17910228835
48.496993988 7.96769971839
48.5971943888 7.83729578941
48.6973947896 7.79328375941
48.7975951904 7.83760550343
48.8977955912 7.96866656853
48.997995992 8.18139281586
49.0981963928 8.46742666949
49.1983967936 8.81545538995
49.2985971944 9.21165848158
49.3987975952 9.64025653951
49.498997996 10.0841397394
49.5991983968 10.5255509351
49.6993987976 10.946796089
49.7995991984 11.3309536107
49.8997995992 11.6625541617
50.0 11.9282036167
